# dimensionless total [l(l+1)/2pi] C_l's
# for l=2 to 3000, i.e. number of multipoles equal to 2999
#
# -> if you prefer output in CAMB/HealPix/LensPix units/order, set 'format' to 'camb' in input file
# -> if you don't want to see such a header, set 'headers' to 'no' in input file
# -> for CMB lensing (phi), these are C_l^phi-phi for the lensing potential.
#    Remember the conversion factors:
#    C_l^dd (deflection) = l(l+1) C_l^phi-phi
#    C_l^gg (shear/convergence) = 1/4 (l(l+1))^2 C_l^phi-phi
#
# 1:l     2:TT                     3:EE                     4:TE                     5:BB                     6:phiphi                 7:TPhi                   8:Ephi               
    2       1.381672071491e-10       4.179498925814e-15       3.519334501164e-13       0.000000000000e+00       8.236330858084e-09       4.535749842640e-10      -1.842360333309e-12 
    3       1.306686500505e-10       5.354349481342e-15       3.955014990329e-13       0.000000000000e+00       5.068767541580e-09       3.217369448882e-10      -1.394920024241e-12 
    4       1.236001791860e-10       4.628865674104e-15       3.698083977855e-13       0.000000000000e+00       3.524745909269e-09       2.436997656316e-10      -9.127420084397e-13 
    5       1.183076849360e-10       3.086038989120e-15       3.148767532592e-13       0.000000000000e+00       2.631981365722e-09       1.925368304114e-10      -5.069339176750e-13 
    6       1.146780117988e-10       1.724512372523e-15       2.535647194830e-13       0.000000000000e+00       2.056887133129e-09       1.566785065726e-10      -2.081012580434e-13 
    7       1.123124666895e-10       9.315385890123e-16       1.990691387269e-13       0.000000000000e+00       1.660291587910e-09       1.303589930094e-10      -1.764540701403e-14 
    8       1.109311498325e-10       6.011013697490e-16       1.571594690550e-13       0.000000000000e+00       1.372925762742e-09       1.103958778409e-10       7.941423635936e-14 
    9       1.102859435151e-10       4.824290285356e-16       1.291090786525e-13       0.000000000000e+00       1.156601857731e-09       9.490325686816e-11       1.064377784725e-13 
   10       1.101461062215e-10       4.107511342575e-16       1.135895391307e-13       0.000000000000e+00       9.888516239903e-10       8.262927859062e-11       8.927920572419e-14 
   11       1.104529640782e-10       3.446473413943e-16       1.079387901458e-13       0.000000000000e+00       8.333804643963e-10       7.300892330413e-11       5.203130627915e-14 
   12       1.110547991589e-10       2.997606149004e-16       1.090991868739e-13       0.000000000000e+00       7.283489875497e-10       6.455585938879e-11       1.227598595072e-14 
   13       1.119012875175e-10       2.870888679631e-16       1.143864676596e-13       0.000000000000e+00       6.421078351464e-10       5.769181763469e-11      -1.798990573678e-14 
   14       1.129451352792e-10       2.986645249848e-16       1.217804123500e-13       0.000000000000e+00       5.703409407327e-10       5.171511313144e-11      -3.451234672142e-14 
   15       1.141729580489e-10       3.227443289979e-16       1.299915941849e-13       0.000000000000e+00       5.099194359856e-10       4.668820626860e-11      -3.750073221915e-14 
   16       1.155095017588e-10       3.568045732459e-16       1.383568978878e-13       0.000000000000e+00       4.585371961142e-10       4.235494608898e-11      -3.091276579893e-14 
   17       1.169823475529e-10       4.063742436485e-16       1.466585818692e-13       0.000000000000e+00       4.144518044938e-10       3.857281585335e-11      -1.994057071924e-14 
   18       1.185283212205e-10       4.768833248679e-16       1.551536988589e-13       0.000000000000e+00       3.761813040532e-10       3.527413400375e-11      -9.473535938569e-15 
   19       1.201586779674e-10       5.686592527287e-16       1.640641876703e-13       0.000000000000e+00       3.431210407066e-10       3.241159901108e-11      -2.117128971298e-15 
   20       1.218661675771e-10       6.797012576801e-16       1.735307363537e-13       0.000000000000e+00       3.139983795254e-10       2.986963880913e-11       4.177823310025e-16 
   21       1.236522842878e-10       8.093668644926e-16       1.835062183752e-13       0.000000000000e+00       2.883573169284e-10       2.760240653253e-11      -1.297233099661e-15 
   22       1.254909794590e-10       9.571658065264e-16       1.938038486589e-13       0.000000000000e+00       2.655859350900e-10       2.555360874937e-11      -5.508400323671e-15 
   23       1.273871171192e-10       1.123297208249e-15       2.040964758071e-13       0.000000000000e+00       2.453722108427e-10       2.371511237277e-11      -1.047327772780e-14 
   24       1.293343258999e-10       1.307992163944e-15       2.139694583819e-13       0.000000000000e+00       2.272498813464e-10       2.207081013371e-11      -1.433773606806e-14 
   25       1.313345755421e-10       1.511336714793e-15       2.231350555750e-13       0.000000000000e+00       2.110064635797e-10       2.060001059659e-11      -1.626986117765e-14 
   26       1.333766403306e-10       1.733605599433e-15       2.313467726018e-13       0.000000000000e+00       1.963486029567e-10       1.926614596849e-11      -1.593296846090e-14 
   27       1.354554744654e-10       1.976813317575e-15       2.384876242512e-13       0.000000000000e+00       1.831009261148e-10       1.805185459567e-11      -1.394341022605e-14 
   28       1.375593178702e-10       2.243491960145e-15       2.445121086699e-13       0.000000000000e+00       1.710355069626e-10       1.693814235539e-11      -1.130867036164e-14 
   29       1.396973416989e-10       2.535047993842e-15       2.494901168445e-13       0.000000000000e+00       1.600910652871e-10       1.592304259771e-11      -8.694830183080e-15 
   30       1.418740280799e-10       2.852516123954e-15       2.535674080208e-13       0.000000000000e+00       1.501504428932e-10       1.500082175567e-11      -6.780562746226e-15 
   31       1.440833906179e-10       3.196896531782e-15       2.568920071928e-13       0.000000000000e+00       1.410113016517e-10       1.415705273971e-11      -6.191234644588e-15 
   32       1.463284386921e-10       3.569247873640e-15       2.594078076739e-13       0.000000000000e+00       1.326266464727e-10       1.338326585959e-11      -6.736538622829e-15 
   33       1.486063280074e-10       3.970620862377e-15       2.609824374636e-13       0.000000000000e+00       1.249373430883e-10       1.266603917763e-11      -7.873734778333e-15 
   34       1.509073129845e-10       4.401982366127e-15       2.614681156979e-13       0.000000000000e+00       1.178359813553e-10       1.198862675422e-11      -9.001077939078e-15 
   35       1.532335939413e-10       4.864050089609e-15       2.607353206774e-13       0.000000000000e+00       1.112863491840e-10       1.135298229573e-11      -9.839034631984e-15 
   36       1.555853313620e-10       5.357387026211e-15       2.586485231359e-13       0.000000000000e+00       1.052360439645e-10       1.076468344966e-11      -1.017399838024e-14 
   37       1.579584181610e-10       5.882527834810e-15       2.550845897855e-13       0.000000000000e+00       9.960648982459e-11       1.022633018601e-11      -9.836503989292e-15 
   38       1.603568844893e-10       6.440293384713e-15       2.500303324471e-13       0.000000000000e+00       9.438323458765e-11       9.735772779249e-12      -8.978634784196e-15 
   39       1.627834451150e-10       7.031573841619e-15       2.435179037272e-13       0.000000000000e+00       8.954979072880e-11       9.286767474339e-12      -7.892086656997e-15 
   40       1.652354518697e-10       7.657243176702e-15       2.356002912022e-13       0.000000000000e+00       8.506016592995e-11       8.869031817095e-12      -6.939821901185e-15 
   41       1.677076715690e-10       8.318113969379e-15       2.263302091929e-13       0.000000000000e+00       8.085490527180e-11       8.471375188917e-12      -6.460971050425e-15 
   42       1.702030731356e-10       9.014786579015e-15       2.156854968316e-13       0.000000000000e+00       7.692168697813e-11       8.093102297150e-12      -6.437250518118e-15 
   43       1.727245957853e-10       9.747749151921e-15       2.036215441916e-13       0.000000000000e+00       7.325011971006e-11       7.735771410768e-12      -6.725693298850e-15 
   44       1.752717741065e-10       1.051741357220e-14       1.900912790835e-13       0.000000000000e+00       6.981355775801e-11       7.399969432117e-12      -7.146759514072e-15 
   45       1.778423311585e-10       1.132415622079e-14       1.750465035709e-13       0.000000000000e+00       6.657863047580e-11       7.085449321040e-12      -7.524100158637e-15 
   46       1.804383235913e-10       1.216846436538e-14       1.584430566216e-13       0.000000000000e+00       6.354027780295e-11       6.791801829291e-12      -7.823350283106e-15 
   47       1.830612577293e-10       1.305082661859e-14       1.402367064622e-13       0.000000000000e+00       6.069498740200e-11       6.517832661169e-12      -8.050984982812e-15 
   48       1.857100959455e-10       1.397169046612e-14       1.203814723249e-13       0.000000000000e+00       5.803022680185e-11       6.261278892686e-12      -8.216053798160e-15 
   49       1.883810293247e-10       1.493146078207e-14       9.882943082325e-14       0.000000000000e+00       5.552377248897e-11       6.018732715415e-12      -8.330340810670e-15 
   50       1.910696368129e-10       1.593047195541e-14       7.553587720469e-14       0.000000000000e+00       5.315040832356e-11       5.786615444828e-12      -8.408822873704e-15 
   51       1.937785810150e-10       1.696889879412e-14       5.047690992079e-14       0.000000000000e+00       5.090572078910e-11       5.564588142295e-12      -8.470819515629e-15 
   52       1.965116083694e-10       1.804681887069e-14       2.363628449777e-14       0.000000000000e+00       4.878760298747e-11       5.352934954426e-12      -8.539431900699e-15 
   53       1.992712329329e-10       1.916423413553e-14      -4.999467181240e-15       0.000000000000e+00       4.678913340364e-11       5.151567566570e-12      -8.641441969580e-15 
   54       2.020586213503e-10       2.032106819045e-14      -3.544097850665e-14       0.000000000000e+00       4.489825178873e-11       4.959998370868e-12      -8.807486565267e-15 
   55       2.048741395523e-10       2.151721269579e-14      -6.769622623013e-14       0.000000000000e+00       4.310144143507e-11       4.777575813207e-12      -9.062347749420e-15 
   56       2.077194154191e-10       2.275268633794e-14      -1.017712502545e-13       0.000000000000e+00       4.139658973120e-11       4.604320368217e-12      -9.392600209498e-15 
   57       2.105955870402e-10       2.402751057709e-14      -1.376695104160e-13       0.000000000000e+00       3.978275472855e-11       4.440249240143e-12      -9.771231768227e-15 
   58       2.135025985710e-10       2.534166317916e-14      -1.753916176071e-13       0.000000000000e+00       3.825627429500e-11       4.285116123582e-12      -1.016661666726e-14 
   59       2.164391109832e-10       2.669507740358e-14      -2.149352846185e-13       0.000000000000e+00       3.681059809111e-11       4.138394586290e-12      -1.054230460961e-14 
   60       2.194024128146e-10       2.808764119115e-14      -2.562952769832e-13       0.000000000000e+00       3.543611954638e-11       3.999261452001e-12      -1.085680980205e-14 
   61       2.223896806245e-10       2.951911853942e-14      -2.994637916327e-13       0.000000000000e+00       3.412284490100e-11       3.866826050300e-12      -1.107308304302e-14 
   62       2.254022928791e-10       3.098889484351e-14      -3.444318033949e-13       0.000000000000e+00       3.286948052674e-11       3.740915690337e-12      -1.118988971657e-14 
   63       2.284423303955e-10       3.249617269292e-14      -3.911879348778e-13       0.000000000000e+00       3.167609647449e-11       3.621437810006e-12      -1.121713263112e-14 
   64       2.315112665756e-10       3.404004142384e-14      -4.397180204478e-13       0.000000000000e+00       3.054139293918e-11       3.508141025239e-12      -1.116688484416e-14 
   65       2.346099209817e-10       3.561947383803e-14      -4.900050706470e-13       0.000000000000e+00       2.946262225399e-11       3.400606314008e-12      -1.105348594036e-14 
   66       2.377384129120e-10       3.723332292170e-14      -5.420292366104e-13       0.000000000000e+00       2.843551088450e-11       3.298238200305e-12      -1.089363830978e-14 
   67       2.408961149755e-10       3.888031856438e-14      -5.957677744832e-13       0.000000000000e+00       2.745418142295e-11       3.200255938141e-12      -1.070650342591e-14 
   68       2.440822597159e-10       4.055919896179e-14      -6.511966072576e-13       0.000000000000e+00       2.651272297071e-11       3.105893843060e-12      -1.051012116703e-14 
   69       2.472980059884e-10       4.226914307674e-14      -7.082954573120e-13       0.000000000000e+00       2.561044615356e-11       3.015069129907e-12      -1.030961005749e-14 
   70       2.505447098098e-10       4.400942031446e-14      -7.670436947156e-13       0.000000000000e+00       2.474755767027e-11       2.927834180867e-12      -1.010673805737e-14 
   71       2.538232791670e-10       4.577926375251e-14      -8.274188370035e-13       0.000000000000e+00       2.392357091282e-11       2.844175966311e-12      -9.903390168105e-15 
   72       2.571341442942e-10       4.757787030429e-14      -8.893965544491e-13       0.000000000000e+00       2.313727011888e-11       2.764012577830e-12      -9.701570670753e-15 
   73       2.604772279504e-10       4.940440088249e-14      -9.529506753359e-13       0.000000000000e+00       2.238667452428e-11       2.687189761265e-12      -9.503405364339e-15 
   74       2.638519156966e-10       5.125798056261e-14      -1.018053191230e-12       0.000000000000e+00       2.166900251547e-11       2.613477449740e-12      -9.311143804166e-15 
   75       2.672570261731e-10       5.313769874642e-14      -1.084674262251e-12       0.000000000000e+00       2.098063578198e-11       2.542566296694e-12      -9.127161540133e-15 
   76       2.706913987250e-10       5.504254570196e-14      -1.152781823823e-12       0.000000000000e+00       2.031801779233e-11       2.474149214103e-12      -8.953649244560e-15 
   77       2.741558456920e-10       5.697120846203e-14      -1.222340312482e-12       0.000000000000e+00       1.968061761639e-11       2.408190816903e-12      -8.791609701027e-15 
   78       2.776515037820e-10       5.892223783090e-14      -1.293311716210e-12       0.000000000000e+00       1.906844395360e-11       2.344701042558e-12      -8.641681128405e-15 
   79       2.811792315187e-10       6.089410758329e-14      -1.365655949495e-12       0.000000000000e+00       1.848114233804e-11       2.283652808802e-12      -8.504429950625e-15 
   80       2.847395921775e-10       6.288521332320e-14      -1.439330850425e-12       0.000000000000e+00       1.791797844994e-11       2.224980289774e-12      -8.380346614404e-15 
   81       2.883328367226e-10       6.489387134277e-14      -1.514292177794e-12       0.000000000000e+00       1.737782142723e-11       2.168577192149e-12      -8.269841406981e-15 
   82       2.919588867434e-10       6.691831748110e-14      -1.590493608198e-12       0.000000000000e+00       1.685912717703e-11       2.114295031274e-12      -8.173240273851e-15 
   83       2.956173173909e-10       6.895670598309e-14      -1.667886733136e-12       0.000000000000e+00       1.635992168721e-11       2.061941407294e-12      -8.090780636498e-15 
   84       2.993076390187e-10       7.100717865569e-14      -1.746421577814e-12       0.000000000000e+00       1.587828091459e-11       2.011327981060e-12      -8.022337775636e-15 
   85       3.030302331295e-10       7.306808800899e-14      -1.826048262718e-12       0.000000000000e+00       1.541389841265e-11       1.962427316179e-12      -7.966561024589e-15 
   86       3.067855410252e-10       7.513780918695e-14      -1.906715613462e-12       0.000000000000e+00       1.496674819411e-11       1.915238998316e-12      -7.921586041286e-15 
   87       3.105737670320e-10       7.721467299865e-14      -1.988370669349e-12       0.000000000000e+00       1.453660304078e-11       1.869741371744e-12      -7.885282928371e-15 
   88       3.143948664572e-10       7.929696595866e-14      -2.070958689249e-12       0.000000000000e+00       1.412302616097e-11       1.825890650760e-12      -7.855247522635e-15 
   89       3.182485335463e-10       8.138293032731e-14      -2.154423157459e-12       0.000000000000e+00       1.372536284675e-11       1.783620031116e-12      -7.828792684432e-15 
   90       3.221341894394e-10       8.347076415101e-14      -2.238705789574e-12       0.000000000000e+00       1.334273213138e-11       1.742838801432e-12      -7.802939587106e-15 
   91       3.260509701282e-10       8.555862130255e-14      -2.323746538358e-12       0.000000000000e+00       1.297401844664e-11       1.703431454630e-12      -7.774409006412e-15 
   92       3.299977144125e-10       8.764461152142e-14      -2.409483599608e-12       0.000000000000e+00       1.261786328016e-11       1.665256799344e-12      -7.739612609939e-15 
   93       3.339733169887e-10       8.972682836946e-14      -2.495854283203e-12       0.000000000000e+00       1.227298756726e-11       1.628182476928e-12      -7.695478871285e-15 
   94       3.379778746185e-10       9.180343782002e-14      -2.582797763366e-12       0.000000000000e+00       1.193923245229e-11       1.592196380868e-12      -7.642091825091e-15 
   95       3.420116908795e-10       9.387260312914e-14      -2.670252754817e-12       0.000000000000e+00       1.161666036144e-11       1.557310429940e-12      -7.580434922620e-15 
   96       3.460749194562e-10       9.593245852517e-14      -2.758156701953e-12       0.000000000000e+00       1.130523446380e-11       1.523526258579e-12      -7.511594478185e-15 
   97       3.501675571094e-10       9.798110963228e-14      -2.846445796594e-12       0.000000000000e+00       1.100481486857e-11       1.490834814315e-12      -7.436762415330e-15 
   98       3.542894366448e-10       1.000166338940e-13      -2.935054995727e-12       0.000000000000e+00       1.071515482236e-11       1.459215955195e-12      -7.357239013013e-15 
   99       3.584402198818e-10       1.020370809965e-13      -3.023918039252e-12       0.000000000000e+00       1.043589690654e-11       1.428638047219e-12      -7.274435651779e-15 
  100       3.626193906225e-10       1.040404732925e-13      -3.112967467722e-12       0.000000000000e+00       1.016656923444e-11       1.399057561766e-12      -7.189877559946e-15 
  101       3.668262476206e-10       1.060248062242e-13      -3.202134640091e-12       0.000000000000e+00       9.906581648708e-12       1.370418673021e-12      -7.105206559784e-15 
  102       3.710598975502e-10       1.079880487475e-13      -3.291349751458e-12       0.000000000000e+00       9.655221918576e-12       1.342652855409e-12      -7.022183813690e-15 
  103       3.753192479746e-10       1.099281437548e-13      -3.380541850807e-12       0.000000000000e+00       9.411651937142e-12       1.315678481021e-12      -6.942692570375e-15 
  104       3.796032375893e-10       1.118430595637e-13      -3.469639419816e-12       0.000000000000e+00       9.175097740142e-12       1.289420019121e-12      -6.868334100919e-15 
  105       3.839115775172e-10       1.137309513913e-13      -3.558572160075e-12       0.000000000000e+00       8.945456986342e-12       1.263869455510e-12      -6.799147428424e-15 
  106       3.882440975094e-10       1.155900225840e-13      -3.647269481499e-12       0.000000000000e+00       8.722766831575e-12       1.239032458146e-12      -6.734720967048e-15 
  107       3.926005132433e-10       1.174184764727e-13      -3.735659986448e-12       0.000000000000e+00       8.507015782635e-12       1.214909331047e-12      -6.674582184846e-15 
