# dimensionless total [l(l+1)/2pi] C_l's
# for l=2 to 2500, i.e. number of multipoles equal to 2499
#
# -> if you prefer output in CAMB/HealPix/LensPix units/order, set 'format' to 'camb' in input file
# -> if you don't want to see such a header, set 'headers' to 'no' in input file
# -> for CMB lensing (phi), these are C_l^phi-phi for the lensing potential.
#    Remember the conversion factors:
#    C_l^dd (deflection) = l(l+1) C_l^phi-phi
#    C_l^gg (shear/convergence) = 1/4 (l(l+1))^2 C_l^phi-phi
#
# 1:l     2:TT                     3:EE                     4:TE                     5:BB                     6:phiphi                 7:TPhi                   8:Ephi               
    2       1.100691908192e-10       4.182688485173e-15       2.853696067155e-13       0.000000000000e+00       8.242830565777e-09       4.732664176196e-10      -1.840666540716e-12 
    3       1.009296308315e-10       5.356625395032e-15       3.310954018655e-13       0.000000000000e+00       5.075085382241e-09       3.322139980324e-10      -1.394021678426e-12 
    4       9.296098278966e-11       4.629993784100e-15       3.148485456808e-13       0.000000000000e+00       3.533500642081e-09       2.500434495768e-10      -9.119980045276e-13 
    5       8.692306905178e-11       3.085944809428e-15       2.700311453451e-13       0.000000000000e+00       2.639000929941e-09       1.968213198951e-10      -5.063117700754e-13 
    6       8.253403341618e-11       1.722607090566e-15       2.170551004827e-13       0.000000000000e+00       2.062440555945e-09       1.597642888319e-10      -2.075683606377e-13 
    7       7.936893943244e-11       9.284265667913e-16       1.683168644643e-13       0.000000000000e+00       1.664415532851e-09       1.325825744635e-10      -1.716686019863e-14 
    8       7.713787249635e-11       5.973331816143e-16       1.296874418275e-13       0.000000000000e+00       1.375368603073e-09       1.119730407527e-10       7.983928943588e-14 
    9       7.566613171006e-11       4.782154152421e-16       1.030409167280e-13       0.000000000000e+00       1.157607341433e-09       9.604909445350e-11       1.068027715979e-13 
   10       7.472400056431e-11       4.059856900479e-16       8.771880983613e-14       0.000000000000e+00       9.889943141953e-10       8.351693379849e-11       8.958338944239e-14 
   11       7.417424449121e-11       3.390644321712e-16       8.141561227517e-14       0.000000000000e+00       8.364867054726e-10       7.356556013465e-11       5.225567578144e-14 
   12       7.384517169150e-11       2.930195160919e-16       8.124719670006e-14       0.000000000000e+00       7.310515861077e-10       6.501925498627e-11       1.243072748179e-14 
   13       7.375390107686e-11       2.787282671983e-16       8.465945006570e-14       0.000000000000e+00       6.444560567915e-10       5.807209498669e-11      -1.784754636102e-14 
   14       7.395730187110e-11       2.881215568898e-16       8.971397468320e-14       0.000000000000e+00       5.723821502786e-10       5.209253651185e-11      -3.430973484943e-14 
   15       7.444924324647e-11       3.093772693290e-16       9.517475506923e-14       0.000000000000e+00       5.117038786587e-10       4.696940659614e-11      -3.733751318547e-14 
   16       7.514634126338e-11       3.399374005855e-16       1.004292591789e-13       0.000000000000e+00       4.600805877251e-10       4.257742884227e-11      -3.066057561180e-14 
   17       7.606283438025e-11       3.852808502420e-16       1.053248772764e-13       0.000000000000e+00       4.157873840228e-10       3.871184539136e-11      -1.964394603005e-14 
   18       7.713516795888e-11       4.508300131536e-16       1.100741056475e-13       0.000000000000e+00       3.773317835003e-10       3.534690173483e-11      -9.158857675641e-15 
   19       7.835667006852e-11       5.368206542044e-16       1.149224303783e-13       0.000000000000e+00       3.441011606668e-10       3.244559714371e-11      -1.787323661239e-15 
   20       7.970664712038e-11       6.411316364388e-16       1.200837994633e-13       0.000000000000e+00       3.148242579539e-10       2.987038191606e-11       7.485176238586e-16 
   21       8.117187447606e-11       7.630682588138e-16       1.255417141813e-13       0.000000000000e+00       2.890447535626e-10       2.756894493989e-11      -9.992048805416e-16 
   22       8.272148922745e-11       9.021103589046e-16       1.311333710911e-13       0.000000000000e+00       2.661480009274e-10       2.548513985163e-11      -5.288061508894e-15 
   23       8.436352950051e-11       1.058382453627e-15       1.365577276911e-13       0.000000000000e+00       2.458201930480e-10       2.362126401439e-11      -1.032135222433e-14 
   24       8.610159658702e-11       1.232025285426e-15       1.414241234278e-13       0.000000000000e+00       2.275926619205e-10       2.197051238148e-11      -1.417874748559e-14 
   25       8.792471096151e-11       1.423039131753e-15       1.454310090775e-13       0.000000000000e+00       2.112527269821e-10       2.049179765054e-11      -1.606251285176e-14 
   26       8.980899047404e-11       1.631611135387e-15       1.483163999354e-13       0.000000000000e+00       1.965067620799e-10       1.912363637790e-11      -1.569867260390e-14 
   27       9.175815550757e-11       1.859657586326e-15       1.500124942435e-13       0.000000000000e+00       1.831785001153e-10       1.786745322518e-11      -1.370088985089e-14 
   28       9.377743100618e-11       2.109618189058e-15       1.505404436523e-13       0.000000000000e+00       1.710385674362e-10       1.673397890287e-11      -1.105409527400e-14 
   29       9.586993064687e-11       2.382860156851e-15       1.499826986178e-13       0.000000000000e+00       1.600254146275e-10       1.571794322930e-11      -8.418434464209e-15 
   30       9.802928845580e-11       2.680406949487e-15       1.484778045037e-13       0.000000000000e+00       1.500215368743e-10       1.479710810596e-11      -6.471613260879e-15 
   31       1.002422391847e-10       3.003228319663e-15       1.461666641319e-13       0.000000000000e+00       1.408238804848e-10       1.394095476510e-11      -5.841555831712e-15 
   32       1.025102056124e-10       3.352202339302e-15       1.430064084232e-13       0.000000000000e+00       1.323852494923e-10       1.314471242709e-11      -6.355950981288e-15 
   33       1.048341350304e-10       3.728127661186e-15       1.388856710593e-13       0.000000000000e+00       1.246461985447e-10       1.240649157220e-11      -7.498609049585e-15 
   34       1.072100906023e-10       4.131747713559e-15       1.336794318626e-13       0.000000000000e+00       1.174987868847e-10       1.172045002613e-11      -8.688207355122e-15 
   35       1.096362009185e-10       4.563825170681e-15       1.272793228343e-13       0.000000000000e+00       1.109065922808e-10       1.108601819450e-11      -9.617779229632e-15 
   36       1.121070039078e-10       5.025084459072e-15       1.195717438458e-13       0.000000000000e+00       1.048169298739e-10       1.050106652933e-11      -1.002474888640e-14 
   37       1.146146459514e-10       5.516202446002e-15       1.104531187417e-13       0.000000000000e+00       9.915082898670e-11       9.960658849337e-12      -9.694142346452e-15 
   38       1.171613930404e-10       6.037860186939e-15       9.991328984063e-14       0.000000000000e+00       9.389374942246e-11       9.462561475099e-12      -8.786722576371e-15 
   39       1.197505537569e-10       6.590701614985e-15       8.798015965011e-14       0.000000000000e+00       8.902911856325e-11       9.002990846295e-12      -7.623165446386e-15 
   40       1.223827407396e-10       7.175315242375e-15       7.469864439872e-14       0.000000000000e+00       8.451073690527e-11       8.574775039440e-12      -6.602749944380e-15 
   41       1.250567871575e-10       7.792270108003e-15       6.011362053174e-14       0.000000000000e+00       8.027888189712e-11       8.169667610293e-12      -6.098797942677e-15 
   42       1.277735867533e-10       8.442246026131e-15       4.420969232933e-14       0.000000000000e+00       7.632113670820e-11       7.786877340939e-12      -6.091847088039e-15 
   43       1.305329914747e-10       9.125939904142e-15       2.695349362344e-14       0.000000000000e+00       7.262701358723e-11       7.426837478565e-12      -6.425611945725e-15 
   44       1.333324820001e-10       9.844029245859e-15       8.309805238999e-15       0.000000000000e+00       6.916969904425e-11       7.088744385819e-12      -6.903902839250e-15 
   45       1.361684278366e-10       1.059713249871e-14      -1.175534125532e-14       0.000000000000e+00       6.591562729755e-11       6.771046116319e-12      -7.333818856085e-15 
   46       1.390408372091e-10       1.138567777652e-14      -3.326366519476e-14       0.000000000000e+00       6.285967539339e-11       6.473330291303e-12      -7.676532281113e-15 
   47       1.419496515786e-10       1.220999357787e-14      -5.623276619857e-14       0.000000000000e+00       5.999827989214e-11       6.194821626905e-12      -7.937391092540e-15 
   48       1.448932559915e-10       1.307034132777e-14      -8.067924089910e-14       0.000000000000e+00       5.731882195049e-11       5.933767943028e-12      -8.124336277408e-15 
   49       1.478683435477e-10       1.396691236709e-14      -1.066187363841e-13       0.000000000000e+00       5.479895420111e-11       5.687369133206e-12      -8.248067092403e-15 
   50       1.508713581766e-10       1.489983067422e-14      -1.340679329725e-13       0.000000000000e+00       5.241332611661e-11       5.452610825224e-12      -8.323228837245e-15 
   51       1.539035990845e-10       1.586916888570e-14      -1.630510030452e-13       0.000000000000e+00       5.015747385673e-11       5.229196924305e-12      -8.371972857265e-15 
   52       1.569672675767e-10       1.687493142012e-14      -1.935949977688e-13       0.000000000000e+00       4.802925152045e-11       5.017290295670e-12      -8.421648526722e-15 
   53       1.600639500431e-10       1.791704645016e-14      -2.257282118042e-13       0.000000000000e+00       4.602168217597e-11       4.816649863882e-12      -8.504073510368e-15 
   54       1.631945566991e-10       1.899536316166e-14      -2.594803275404e-13       0.000000000000e+00       4.412263290436e-11       4.626602156392e-12      -8.655747142493e-15 
   55       1.663594476549e-10       2.010972024180e-14      -2.948768290027e-13       0.000000000000e+00       4.231851014491e-11       4.446298317738e-12      -8.906578360543e-15 
   56       1.695589881331e-10       2.126017754649e-14      -3.319202881030e-13       0.000000000000e+00       4.060716518616e-11       4.275625111090e-12      -9.242301527390e-15 
   57       1.727930238801e-10       2.244683718329e-14      -3.706046821300e-13       0.000000000000e+00       3.898762548931e-11       4.114470385324e-12      -9.633097642613e-15 
   58       1.760606531379e-10       2.366977735823e-14      -4.109206394632e-13       0.000000000000e+00       3.745619061925e-11       3.962440475520e-12      -1.004403275121e-14 
   59       1.793601726837e-10       2.492905241011e-14      -4.528553605477e-13       0.000000000000e+00       3.600626392334e-11       3.818842868737e-12      -1.043482383778e-14 
   60       1.826890238703e-10       2.622469284479e-14      -4.963925388689e-13       0.000000000000e+00       3.462818421019e-11       3.682668869788e-12      -1.075960472064e-14 
   61       1.860446418074e-10       2.755659381963e-14      -5.415137227482e-13       0.000000000000e+00       3.331190291365e-11       3.552861797677e-12      -1.097750583939e-14 
   62       1.894273477161e-10       2.892415126926e-14      -5.882029366973e-13       0.000000000000e+00       3.205609858385e-11       3.429231136662e-12      -1.108769826026e-14 
   63       1.928380129958e-10       3.032654379348e-14      -6.364429618664e-13       0.000000000000e+00       3.086081886318e-11       3.311713750140e-12      -1.110183604692e-14 
   64       1.962771885686e-10       3.176283356425e-14      -6.862139541085e-13       0.000000000000e+00       2.972473903989e-11       3.200098345763e-12      -1.103404332993e-14 
   65       1.997450795757e-10       3.323196282061e-14      -7.374934106708e-13       0.000000000000e+00       2.864508401203e-11       3.094017200884e-12      -1.090102331751e-14 
   66       2.032415200725e-10       3.473275036357e-14      -7.902561368859e-13       0.000000000000e+00       2.761755025132e-11       2.992937888004e-12      -1.072216730636e-14 
   67       2.067659477254e-10       3.626388805100e-14      -8.444742128629e-13       0.000000000000e+00       2.663622776706e-11       2.896155000217e-12      -1.051966369254e-14 
   68       2.103177414046e-10       3.782408898854e-14      -9.001193189375e-13       0.000000000000e+00       2.569517371112e-11       2.802973627663e-12      -1.031419846617e-14 
   69       2.138973699586e-10       3.941257480564e-14      -9.571703336432e-13       0.000000000000e+00       2.479367788662e-11       2.713321453895e-12      -1.011080137631e-14 
   70       2.175054318241e-10       4.102868127140e-14      -1.015607222525e-12       0.000000000000e+00       2.393192888465e-11       2.627246391438e-12      -9.910314481167e-15 
   71       2.211422969889e-10       4.267171570250e-14      -1.075408842132e-12       0.000000000000e+00       2.310942169182e-11       2.544732494615e-12      -9.713543238193e-15 
   72       2.248080909692e-10       4.434095733780e-14      -1.136552967036e-12       0.000000000000e+00       2.232492189558e-11       2.465696589103e-12      -9.521252765132e-15 
   73       2.285026787869e-10       4.603565771292e-14      -1.199016316846e-12       0.000000000000e+00       2.157642988959e-11       2.389984901503e-12      -9.334164101073e-15 
   74       2.322256489471e-10       4.775504103487e-14      -1.262774583229e-12       0.000000000000e+00       2.086114507910e-11       2.317369688901e-12      -9.152950467500e-15 
   75       2.359762974150e-10       4.949830455659e-14      -1.327802456925e-12       0.000000000000e+00       2.017543008623e-11       2.247545868429e-12      -8.978233529337e-15 
   76       2.397539139789e-10       5.126454675274e-14      -1.394071961613e-12       0.000000000000e+00       1.951571010440e-11       2.180216432327e-12      -8.810655607527e-15 
   77       2.435587370444e-10       5.305253589787e-14      -1.461547045010e-12       0.000000000000e+00       1.888143942401e-11       2.115374125668e-12      -8.651119784447e-15 
   78       2.473911446507e-10       5.486089977188e-14      -1.530188045936e-12       0.000000000000e+00       1.827261334866e-11       2.053065249169e-12      -8.500586993378e-15 
   79       2.512513578672e-10       5.668819302699e-14      -1.599953292385e-12       0.000000000000e+00       1.768886468707e-11       1.993303905759e-12      -8.360001805051e-15 
   80       2.551394309723e-10       5.853289608193e-14      -1.670799093827e-12       0.000000000000e+00       1.712944713442e-11       1.936070450770e-12      -8.230290246144e-15 
   81       2.590552416308e-10       6.039341401597e-14      -1.742679733503e-12       0.000000000000e+00       1.659321865370e-11       1.881309942112e-12      -8.112357617779e-15 
   82       2.629984810718e-10       6.226807546306e-14      -1.815547460724e-12       0.000000000000e+00       1.607862485706e-11       1.828930590461e-12      -8.007086314021e-15 
   83       2.669686442669e-10       6.415513150593e-14      -1.889352483170e-12       0.000000000000e+00       1.558368238710e-11       1.778802209436e-12      -7.915333640371e-15 
   84       2.709652009573e-10       6.605282595256e-14      -1.964044349070e-12       0.000000000000e+00       1.510645816813e-11       1.730783200811e-12      -7.837561294914e-15 
   85       2.749881628265e-10       6.795962197419e-14      -2.039576373907e-12       0.000000000000e+00       1.464663484840e-11       1.684810045031e-12      -7.772658015254e-15 
   86       2.790375927818e-10       6.987401118616e-14      -2.115901936860e-12       0.000000000000e+00       1.420417561211e-11       1.640819873791e-12      -7.718916844212e-15 
   87       2.831134257824e-10       7.179444569854e-14      -2.192973171588e-12       0.000000000000e+00       1.377884322109e-11       1.598722199601e-12      -7.674377864788e-15 
   88       2.872154620563e-10       7.371933820987e-14      -2.270740981896e-12       0.000000000000e+00       1.337019172999e-11       1.558397845551e-12      -7.636819828108e-15 
   89       2.913433603187e-10       7.564706210103e-14      -2.349155057384e-12       0.000000000000e+00       1.297755820161e-11       1.519697875069e-12      -7.603751781385e-15 
   90       2.954966309883e-10       7.757595152900e-14      -2.428163889109e-12       0.000000000000e+00       1.260005442222e-11       1.482442521690e-12      -7.572404695863e-15 
   91       2.996746294056e-10       7.950430152069e-14      -2.507714785241e-12       0.000000000000e+00       1.223655861678e-11       1.446420118811e-12      -7.539723094778e-15 
   92       3.038765490498e-10       8.143036806670e-14      -2.587753886722e-12       0.000000000000e+00       1.188570716430e-11       1.411386029458e-12      -7.502356681307e-15 
   93       3.081016178013e-10       8.335239151585e-14      -2.668226306406e-12       0.000000000000e+00       1.154621603311e-11       1.377119268589e-12      -7.457416099747e-15 
   94       3.123497352259e-10       8.526867057959e-14      -2.749076536426e-12       0.000000000000e+00       1.121791838241e-11       1.343604436085e-12      -7.404888426916e-15 
   95       3.166209190434e-10       8.717749968303e-14      -2.830248131330e-12       0.000000000000e+00       1.090086842461e-11       1.310875295052e-12      -7.345571182162e-15 
   96       3.209151066820e-10       8.907714706416e-14      -2.911683607173e-12       0.000000000000e+00       1.059502190183e-11       1.278959242781e-12      -7.280342652715e-15 
   97       3.252321512820e-10       9.096585518749e-14      -2.993324458872e-12       0.000000000000e+00       1.030023232714e-11       1.247877032441e-12      -7.210164010767e-15 
   98       3.295718177008e-10       9.284184115769e-14      -3.075111177557e-12       0.000000000000e+00       1.001624722588e-11       1.217642494785e-12      -7.136081430558e-15 
   99       3.339337785175e-10       9.470329713321e-14      -3.156983267923e-12       0.000000000000e+00       9.742704377010e-12       1.188262259842e-12      -7.059228205463e-15 
  100       3.383176100374e-10       9.654839074000e-14      -3.238879265585e-12       0.000000000000e+00       9.479128054340e-12       1.159735478621e-12      -6.980826865073e-15 
  101       3.427227882965e-10       9.837526548509e-14      -3.320736754425e-12       0.000000000000e+00       9.224925267877e-12       1.132053544804e-12      -6.902191292283e-15 
  102       3.471486850660e-10       1.001820411703e-13      -3.402492383952e-12       0.000000000000e+00       8.979382005111e-12       1.105199816447e-12      -6.824728840374e-15 
  103       3.515945638575e-10       1.019668143058e-13      -3.484081886648e-12       0.000000000000e+00       8.741659472318e-12       1.079149337677e-12      -6.749942450096e-15 
  104       3.560596940234e-10       1.037277066903e-13      -3.565440595201e-12       0.000000000000e+00       8.510982793871e-12       1.053876584546e-12      -6.679112098543e-15 
  105       3.605437192221e-10       1.054630177350e-13      -3.646505036395e-12       0.000000000000e+00       8.287244236511e-12       1.029380493661e-12      -6.612285578027e-15 
  106       3.650463315103e-10       1.071710935830e-13      -3.727211585882e-12       0.000000000000e+00       8.070474843940e-12       1.005662311461e-12      -6.549154698325e-15 
  107       3.695671550261e-10       1.088502817123e-13      -3.807496010104e-12       0.000000000000e+00       7.860657631515e-12       9.827176841552e-13      -6.489362390955e-15 
